       z/Rp        rho(g/cc)        P(bar)         T(K) 
    9.41898e-01    9.41054e-04    1.00000e+02    2.96476e+03
    9.43281e-01    7.99664e-04    8.49753e+01    2.96476e+03
    9.44665e-01    6.79517e-04    7.22081e+01    2.96476e+03
    9.46048e-01    5.77422e-04    6.13591e+01    2.96476e+03
    9.47431e-01    4.90666e-04    5.21401e+01    2.96476e+03
    9.48815e-01    4.16946e-04    4.43062e+01    2.96476e+03
    9.50198e-01    3.54301e-04    3.76494e+01    2.96476e+03
    9.51582e-01    3.01068e-04    3.19927e+01    2.96476e+03
    9.52965e-01    2.55834e-04    2.71859e+01    2.96476e+03
    9.54349e-01    2.17396e-04    2.31013e+01    2.96476e+03
    9.55732e-01    1.84733e-04    1.96304e+01    2.96476e+03
    9.57115e-01    1.56977e-04    1.66810e+01    2.96476e+03
    9.58499e-01    1.33392e-04    1.41747e+01    2.96476e+03
    9.59882e-01    1.13350e-04    1.20450e+01    2.96476e+03
    9.61266e-01    9.63198e-05    1.02353e+01    2.96476e+03
    9.62649e-01    8.18481e-05    8.69749e+00    2.96476e+03
    9.64032e-01    6.95507e-05    7.39072e+00    2.96476e+03
    9.65416e-01    5.91010e-05    6.28029e+00    2.96476e+03
    9.66799e-01    5.02212e-05    5.33670e+00    2.96476e+03
    9.68183e-01    4.26757e-05    4.53488e+00    2.96476e+03
    9.69566e-01    3.62638e-05    3.85353e+00    2.96476e+03
    9.70950e-01    3.08153e-05    3.27455e+00    2.96476e+03
    9.72333e-01    2.61854e-05    2.78256e+00    2.96476e+03
    9.73716e-01    2.22511e-05    2.36449e+00    2.96476e+03
    9.75100e-01    1.89080e-05    2.00923e+00    2.96476e+03
    9.76483e-01    1.60671e-05    1.70735e+00    2.96476e+03
    9.77867e-01    1.36531e-05    1.45083e+00    2.96476e+03
    9.79250e-01    1.16018e-05    1.23285e+00    2.96476e+03
    9.80633e-01    9.85863e-06    1.04762e+00    2.96476e+03
    9.82017e-01    8.37741e-06    8.90215e-01    2.96476e+03
    9.83400e-01    7.11873e-06    7.56463e-01    2.96476e+03
    9.84784e-01    6.04917e-06    6.42807e-01    2.96476e+03
    9.86167e-01    5.14030e-06    5.46228e-01    2.96476e+03
    9.87551e-01    4.36799e-06    4.64159e-01    2.96476e+03
    9.88934e-01    3.71171e-06    3.94421e-01    2.96476e+03
    9.90317e-01    3.15404e-06    3.35160e-01    2.96476e+03
    9.91701e-01    2.68016e-06    2.84804e-01    2.96476e+03
    9.93084e-01    2.27767e-06    2.42013e-01    2.96451e+03
    9.94468e-01    1.93588e-06    2.05651e-01    2.96385e+03
    9.95851e-01    1.64558e-06    1.74753e-01    2.96285e+03
    9.97234e-01    1.39896e-06    1.48497e-01    2.96153e+03
    9.98618e-01    1.18940e-06    1.26186e-01    2.95996e+03
    1.00000e+00    1.01163e-06    1.07227e-01    2.95723e+03
    1.00138e+00    8.61826e-07    9.11163e-02    2.94972e+03
    1.00276e+00    7.35378e-07    7.74264e-02    2.93753e+03
    1.00414e+00    6.28480e-07    6.57933e-02    2.92075e+03
    1.00552e+00    5.37971e-07    5.59081e-02    2.89948e+03
    1.00689e+00    4.61227e-07    4.75081e-02    2.87380e+03
    1.00826e+00    3.96027e-07    4.03702e-02    2.84407e+03
    1.00961e+00    3.40543e-07    3.43047e-02    2.81051e+03
    1.01093e+00    2.93273e-07    2.91505e-02    2.77319e+03
    1.01222e+00    2.52954e-07    2.47708e-02    2.73213e+03
    1.01350e+00    2.18526e-07    2.10490e-02    2.68740e+03
    1.01475e+00    1.89029e-07    1.78865e-02    2.63998e+03
    1.01598e+00    1.63502e-07    1.51991e-02    2.59358e+03
    1.01719e+00    1.41411e-07    1.29155e-02    2.54820e+03
    1.01837e+00    1.22293e-07    1.09750e-02    2.50384e+03
    1.01954e+00    1.05749e-07    9.32603e-03    2.46050e+03
    1.02069e+00    9.14337e-08    7.92483e-03    2.41818e+03
    1.02181e+00    7.90462e-08    6.73415e-03    2.37687e+03
    1.02292e+00    6.83278e-08    5.72237e-03    2.33659e+03
    1.02401e+00    5.90541e-08    4.86260e-03    2.29733e+03
    1.02508e+00    5.10309e-08    4.13201e-03    2.25909e+03
    1.02613e+00    4.40901e-08    3.51119e-03    2.22186e+03
    1.02716e+00    3.80863e-08    2.98365e-03    2.18566e+03
    1.02818e+00    3.28935e-08    2.53536e-03    2.15048e+03
    1.02918e+00    2.84026e-08    2.15443e-03    2.11631e+03
    1.03017e+00    2.45192e-08    1.83074e-03    2.08317e+03
    1.03114e+00    2.11616e-08    1.55568e-03    2.05105e+03
    1.03209e+00    1.82590e-08    1.32194e-03    2.01994e+03
    1.03303e+00    1.57502e-08    1.12332e-03    1.98986e+03
    1.03396e+00    1.35822e-08    9.54548e-04    1.96079e+03
    1.03487e+00    1.17090e-08    8.11131e-04    1.93275e+03
    1.03577e+00    1.00909e-08    6.89261e-04    1.90572e+03
    1.03666e+00    8.69337e-09    5.85702e-04    1.87972e+03
    1.03753e+00    7.48674e-09    4.97702e-04    1.85473e+03
    1.03839e+00    6.44516e-09    4.22924e-04    1.83077e+03
    1.03925e+00    5.54631e-09    3.59381e-04    1.80782e+03
    1.04009e+00    4.77086e-09    3.05386e-04    1.78590e+03
    1.04092e+00    4.10207e-09    2.59502e-04    1.76499e+03
    1.04174e+00    3.52547e-09    2.20513e-04    1.74510e+03
    1.04255e+00    3.02852e-09    1.87382e-04    1.72624e+03
    1.04335e+00    2.60038e-09    1.59228e-04    1.70839e+03
    1.04415e+00    2.23166e-09    1.35305e-04    1.69156e+03
    1.04494e+00    1.91425e-09    1.14976e-04    1.67576e+03
    1.04572e+00    1.64112e-09    9.77010e-05    1.66097e+03
    1.04649e+00    1.40621e-09    8.30218e-05    1.64720e+03
    1.04725e+00    1.20425e-09    7.05480e-05    1.63446e+03
    1.04801e+00    1.03071e-09    5.99484e-05    1.62273e+03
    1.04877e+00    8.81667e-10    5.09414e-05    1.61202e+03
    1.04952e+00    7.53730e-10    4.32876e-05    1.60233e+03
    1.05026e+00    6.43968e-10    3.67838e-05    1.59366e+03
    1.05101e+00    5.49853e-10    3.12572e-05    1.58601e+03
    1.05174e+00    4.69201e-10    2.65609e-05    1.57939e+03
    1.05248e+00    4.00126e-10    2.25702e-05    1.57378e+03
    1.05321e+00    3.42114e-10    1.91791e-05    1.56409e+03
    1.05394e+00    2.91378e-10    1.62975e-05    1.56052e+03
    1.05467e+00    2.48004e-10    1.38489e-05    1.55797e+03
    1.05540e+00    2.10950e-10    1.17681e-05    1.55644e+03
    1.05612e+00    1.79314e-10    1.00000e-05    1.55593e+03