#Source directory:   /home/jasmina/Work/TEA/TEA-APJSupp-paper/TEA-paper-runs/test-compendium/WASP-43b-comp/CEA-outputs/
#Pressure    Temp       *H            *CO           *CO2          CH4           H2O           HCN           C2H4          *N2           NH3           H2S           
0.00263027   1000.17    4.1098e-8     4.5928e-4     2.9046e-7     1.9833e-7     3.7678e-4     4.977e-11     1.336e-15     5.7744e-5     9.2010e-9     2.2518e-5     
0.00316228   1007.96    4.6082e-8     4.5925e-4     2.8125e-7     2.3255e-7     3.7682e-4     5.957e-11     1.868e-15     5.7739e-5     1.0509e-8     2.2518e-5     
0.00380189   1017.06    5.3285e-8     4.5923e-4     2.7106e-7     2.6431e-7     3.7686e-4     7.126e-11     2.529e-15     5.7738e-5     1.1912e-8     2.2518e-5     
0.00457088   1027.65    6.3727e-8     4.5921e-4     2.5990e-7     2.9033e-7     3.7690e-4     8.517e-11     3.305e-15     5.7737e-5     1.3388e-8     2.2518e-5     
0.00549541   1039.86    7.8903e-8     4.5921e-4     2.4791e-7     3.0792e-7     3.7693e-4     1.017e-10     4.164e-15     5.7736e-5     1.4918e-8     2.2518e-5     
0.00660693   1053.75    1.0103e-7     4.5921e-4     2.3529e-7     3.1566e-7     3.7695e-4     1.214e-10     5.065e-15     5.7736e-5     1.6484e-8     2.2518e-5     
0.00794328   1069.59    1.3422e-7     4.5923e-4     2.2211e-7     3.1175e-7     3.7696e-4     1.448e-10     5.926e-15     5.7735e-5     1.8046e-8     2.2518e-5     
0.00954993   1087.54    1.8506e-7     4.5926e-4     2.0855e-7     2.9653e-7     3.7696e-4     1.726e-10     6.669e-15     5.7734e-5     1.9572e-8     2.2519e-5     
0.01148154   1107.77    2.6470e-7     4.5930e-4     1.9480e-7     2.7177e-7     3.7695e-4     2.055e-10     7.221e-15     5.7733e-5     2.1032e-8     2.2519e-5     
0.01380384   1130.21    3.9028e-7     4.5934e-4     1.8121e-7     2.4156e-7     3.7693e-4     2.445e-10     7.573e-15     5.7733e-5     2.2428e-8     2.2519e-5     
0.01659587   1154.58    5.8752e-7     4.5939e-4     1.6813e-7     2.1026e-7     3.7691e-4     2.907e-10     7.772e-15     5.7732e-5     2.3790e-8     2.2519e-5     
0.01995262   1181.29    9.0622e-7     4.5943e-4     1.5552e-7     1.7859e-7     3.7689e-4     3.455e-10     7.774e-15     5.7731e-5     2.5079e-8     2.2520e-5     
0.02398833   1210.33    1.4263e-6     4.5947e-4     1.4353e-7     1.4866e-7     3.7687e-4     4.103e-10     7.614e-15     5.7731e-5     2.6301e-8     2.2518e-5     
0.02884031   1241.70    2.2796e-6     4.5951e-4     1.3226e-7     1.2186e-7     3.7686e-4     4.872e-10     7.339e-15     5.7730e-5     2.7475e-8     2.2518e-5     
0.03467369   1274.79    3.6485e-6     4.5954e-4     1.2195e-7     9.9795e-8     3.7685e-4     5.784e-10     7.066e-15     5.7729e-5     2.8689e-8     2.2518e-5     
0.04168694   1308.85    5.7639e-6     4.5957e-4     1.1275e-7     8.2842e-8     3.7684e-4     6.868e-10     6.899e-15     5.7729e-5     3.0053e-8     2.2518e-5     
0.05011872   1344.49    9.0713e-6     4.5959e-4     1.0438e-7     6.9071e-8     3.7683e-4     8.156e-10     6.765e-15     5.7728e-5     3.1511e-8     2.2518e-5     
0.06025596   1381.49    1.4157e-5     4.5961e-4     9.6826e-8     5.8117e-8     3.7683e-4     9.688e-10     6.697e-15     5.7727e-5     3.3110e-8     2.2518e-5     
0.07244360   1419.59    2.1809e-5     4.5962e-4     9.0056e-8     4.9577e-8     3.7682e-4     1.1511e-9     6.724e-15     5.7726e-5     3.4903e-8     2.2518e-5     
0.08709636   1457.64    3.2683e-5     4.5963e-4     8.4144e-8     4.3516e-8     3.7682e-4     1.3687e-9     6.954e-15     5.7724e-5     3.7052e-8     2.2519e-5     
0.10471285   1494.55    4.7118e-5     4.5963e-4     7.9091e-8     3.9738e-8     3.7682e-4     1.6290e-9     7.493e-15     5.7723e-5     3.9718e-8     2.2518e-5     
0.12589254   1531.33    6.6368e-5     4.5964e-4     7.4623e-8     3.7172e-8     3.7682e-4     1.9399e-9     8.278e-15     5.7720e-5     4.2828e-8     2.2518e-5     
0.15135612   1567.62    9.1132e-5     4.5964e-4     7.0688e-8     3.5695e-8     3.7682e-4     2.3117e-9     9.398e-15     5.7718e-5     4.6480e-8     2.2517e-5     
0.18197009   1603.03    1.2173e-4     4.5963e-4     6.7240e-8     3.5259e-8     3.7681e-4     2.7567e-9     1.099e-14     5.7715e-5     5.0798e-8     2.2517e-5     
0.21877616   1636.21    1.5643e-4     4.5963e-4     6.4313e-8     3.6224e-8     3.7681e-4     3.2905e-9     1.338e-14     5.7711e-5     5.6061e-8     2.2507e-5     
0.26302680   1666.15    1.9218e-4     4.5962e-4     6.1896e-8     3.8938e-8     3.7681e-4     3.9316e-9     1.707e-14     5.7707e-5     6.2572e-8     2.2504e-5     
0.31622777   1694.10    2.2929e-4     4.5961e-4     5.9810e-8     4.3110e-8     3.7681e-4     4.7008e-9     2.247e-14     5.7702e-5     7.0355e-8     2.2501e-5     
0.38018940   1719.64    2.6531e-4     4.5960e-4     5.8035e-8     4.9221e-8     3.7681e-4     5.6243e-9     3.054e-14     5.7696e-5     7.9716e-8     2.2498e-5     
0.45708819   1742.36    2.9731e-4     4.5958e-4     5.6551e-8     5.8027e-8     3.7681e-4     6.7339e-9     4.291e-14     5.7690e-5     9.1050e-8     2.2496e-5     
0.54954087   1761.10    3.2008e-4     4.5956e-4     5.5390e-8     7.1192e-8     3.7682e-4     8.0689e-9     6.285e-14     5.7682e-5     1.0504e-7     2.2495e-5     
0.66069345   1775.37    3.3048e-4     4.5954e-4     5.4541e-8     9.1038e-8     3.7684e-4     9.6765e-9     9.611e-14     5.7673e-5     1.2245e-7     2.2495e-5     
0.79432823   1786.63    3.3193e-4     4.5950e-4     5.3893e-8     1.1963e-7     3.7688e-4     1.1609e-8     1.512e-13     5.7657e-5     1.4372e-7     2.2496e-5     
0.95499259   1794.95    3.2487e-4     4.5946e-4     5.3426e-8     1.6128e-7     3.7693e-4     1.3934e-8     2.443e-13     5.7643e-5     1.6977e-7     2.2498e-5     
1.14815360   1800.58    3.1067e-4     4.5940e-4     5.3116e-8     2.2243e-7     3.7700e-4     1.6731e-8     4.041e-13     5.7626e-5     2.0171e-7     2.2500e-5     
1.38038430   1803.74    2.9092e-4     4.5931e-4     5.2945e-8     3.1314e-7     3.7709e-4     2.0093e-8     6.830e-13     5.7605e-5     2.4089e-7     2.2502e-5     
1.65958690   1805.28    2.6877e-4     4.5918e-4     5.2864e-8     4.4665e-7     3.7724e-4     2.4131e-8     1.170e-12     5.7580e-5     2.8864e-7     2.2504e-5     
1.99526230   1806.13    2.4686e-4     4.5899e-4     5.2823e-8     6.4059e-7     3.7744e-4     2.8973e-8     2.015e-12     5.7549e-5     3.4634e-7     2.2516e-5     
2.39883290   1806.53    2.2590e-4     4.5870e-4     5.2809e-8     9.2166e-7     3.7773e-4     3.4773e-8     3.480e-12     5.7512e-5     4.1592e-7     2.2516e-5     
2.88403150   1806.72    2.0635e-4     4.5830e-4     5.2809e-8     1.3275e-6     3.7815e-4     4.1707e-8     6.013e-12     5.7467e-5     4.9967e-7     2.2516e-5     
3.46736850   1806.85    1.8839e-4     4.5771e-4     5.2816e-8     1.9116e-6     3.7874e-4     4.9977e-8     1.038e-11     5.7413e-5     6.0032e-7     2.2516e-5     
4.16869380   1806.98    1.7200e-4     4.5687e-4     5.2829e-8     2.7490e-6     3.7959e-4     5.9807e-8     1.787e-11     5.7349e-5     7.2116e-7     2.2517e-5     
5.01187230   1807.13    1.5707e-4     4.5566e-4     5.2849e-8     3.9456e-6     3.8081e-4     7.1437e-8     3.066e-11     5.7271e-5     8.6618e-7     2.2513e-5     
6.02559590   1807.31    1.4347e-4     4.5395e-4     5.2878e-8     5.6480e-6     3.8253e-4     8.5109e-8     5.233e-11     5.7178e-5     1.0402e-6     2.2514e-5     
7.24435960   1807.53    1.3108e-4     4.5153e-4     5.2918e-8     8.0549e-6     3.8495e-4     1.0104e-7     8.868e-11     5.7066e-5     1.2488e-6     2.2515e-5     
8.70963590   1807.79    1.1981e-4     4.4815e-4     5.2970e-8     1.1430e-5     3.8835e-4     1.1936e-7     1.488e-10     5.6933e-5     1.4988e-6     2.2515e-5     
10.47128500  1808.11    1.0956e-4     4.4345e-4     5.3033e-8     1.6111e-5     3.9306e-4     1.4010e-7     2.466e-10     5.6773e-5     1.7983e-6     2.2516e-5     
12.58925400  1808.49    1.0023e-4     4.3703e-4     5.3100e-8     2.2511e-5     3.9949e-4     1.6304e-7     4.016e-10     5.6584e-5     2.1567e-6     2.2517e-5     
15.13561200  1808.95    9.1762e-5     4.2843e-4     5.3154e-8     3.1106e-5     4.0812e-4     1.8771e-7     6.401e-10     5.6358e-5     2.5853e-6     2.2519e-5     
18.19700900  1809.49    8.4070e-5     4.1712e-4     5.3158e-8     4.2401e-5     4.1945e-4     2.1326e-7     9.935e-10     5.6091e-5     3.0973e-6     2.2519e-5     
21.87761600  1810.15    7.7093e-5     4.0264e-4     5.3052e-8     5.6873e-5     4.3396e-4     2.3851e-7     1.4944e-9     5.5775e-5     3.7082e-6     2.2520e-5     
26.30268000  1810.94    7.0772e-5     3.8461e-4     5.2745e-8     7.4898e-5     4.5202e-4     2.6204e-7     2.1691e-9     5.5402e-5     4.4359e-6     2.2521e-5     
31.62277700  1811.89    6.5054e-5     3.6283e-4     5.2111e-8     9.6669e-5     4.7384e-4     2.8234e-7     3.0281e-9     5.4961e-5     5.3014e-6     2.2521e-5     
0.00001047   958.49     2.0388e-7     4.5942e-4     3.4861e-7     1.019e-11     3.7652e-4     2.031e-13     2.860e-22     5.7744e-5     4.883e-11     2.2518e-5     
0.00001000   958.48     2.0858e-7     4.5942e-4     3.4862e-7     9.296e-12     3.7652e-4     1.939e-13     2.492e-22     5.7744e-5     4.664e-11     2.2518e-5     
0.00001259   958.52     1.8611e-7     4.5942e-4     3.4856e-7     1.472e-11     3.7652e-4     2.442e-13     4.967e-22     5.7744e-5     5.870e-11     2.2518e-5     
0.00001514   958.56     1.6992e-7     4.5942e-4     3.4849e-7     2.126e-11     3.7652e-4     2.936e-13     8.626e-22     5.7744e-5     7.057e-11     2.2518e-5     
0.00001820   958.61     1.5521e-7     4.5942e-4     3.4841e-7     3.067e-11     3.7652e-4     3.530e-13     1.496e-21     5.7744e-5     8.481e-11     2.2518e-5     
0.00002188   958.67     1.4180e-7     4.5942e-4     3.4831e-7     4.425e-11     3.7652e-4     4.243e-13     2.595e-21     5.7744e-5     1.019e-10     2.2518e-5     
0.00002630   958.75     1.2961e-7     4.5942e-4     3.4820e-7     6.380e-11     3.7652e-4     5.100e-13     4.497e-21     5.7744e-5     1.224e-10     2.2518e-5     
0.00003162   958.83     1.1851e-7     4.5942e-4     3.4805e-7     9.198e-11     3.7652e-4     6.131e-13     7.794e-21     5.7744e-5     1.471e-10     2.2518e-5     
0.00003802   958.94     1.0841e-7     4.5942e-4     3.4789e-7     1.326e-10     3.7652e-4     7.372e-13     1.351e-20     5.7744e-5     1.767e-10     2.2518e-5     
0.00004571   959.07     9.9236e-8     4.5942e-4     3.4768e-7     1.909e-10     3.7652e-4     8.862e-13     2.338e-20     5.7744e-5     2.123e-10     2.2518e-5     
0.00005495   959.22     9.0912e-8     4.5942e-4     3.4744e-7     2.746e-10     3.7652e-4     1.065e-12     4.043e-20     5.7744e-5     2.549e-10     2.2518e-5     
0.00006607   959.40     8.3355e-8     4.5942e-4     3.4714e-7     3.949e-10     3.7652e-4     1.281e-12     6.988e-20     5.7744e-5     3.061e-10     2.2518e-5     
0.00007943   959.63     7.6514e-8     4.5942e-4     3.4679e-7     5.670e-10     3.7652e-4     1.539e-12     1.206e-19     5.7744e-5     3.674e-10     2.2518e-5     
0.00009550   959.89     7.0323e-8     4.5942e-4     3.4637e-7     8.133e-10     3.7652e-4     1.851e-12     2.079e-19     5.7744e-5     4.409e-10     2.2518e-5     
0.00011482   960.22     6.4736e-8     4.5942e-4     3.4585e-7     1.1646e-9     3.7652e-4     2.225e-12     3.578e-19     5.7744e-5     5.289e-10     2.2518e-5     
0.00013804   960.60     5.9708e-8     4.5942e-4     3.4524e-7     1.6642e-9     3.7652e-4     2.674e-12     6.144e-19     5.7744e-5     6.341e-10     2.2518e-5     
0.00016596   961.07     5.5194e-8     4.5942e-4     3.4450e-7     2.3729e-9     3.7652e-4     3.214e-12     1.053e-18     5.7744e-5     7.598e-10     2.2518e-5     
0.00019953   961.63     5.1160e-8     4.5942e-4     3.4362e-7     3.3742e-9     3.7653e-4     3.863e-12     1.799e-18     5.7744e-5     9.098e-10     2.2518e-5     
0.00023988   962.31     4.7577e-8     4.5942e-4     3.4257e-7     4.7818e-9     3.7653e-4     4.642e-12     3.062e-18     5.7744e-5     1.0886e-9     2.2518e-5     
0.00028840   963.12     4.4416e-8     4.5942e-4     3.4131e-7     6.7504e-9     3.7653e-4     5.578e-12     5.192e-18     5.7744e-5     1.3012e-9     2.2518e-5     
0.00034674   964.09     4.1658e-8     4.5942e-4     3.3980e-7     9.4852e-9     3.7653e-4     6.703e-12     8.763e-18     5.7744e-5     1.5537e-9     2.2518e-5     
0.00041687   965.26     3.9289e-8     4.5941e-4     3.3801e-7     1.3252e-8     3.7654e-4     8.053e-12     1.470e-17     5.7744e-5     1.8525e-9     2.2518e-5     
0.00050119   966.66     3.7297e-8     4.5941e-4     3.3588e-7     1.8393e-8     3.7655e-4     9.674e-12     2.449e-17     5.7744e-5     2.2052e-9     2.2518e-5     
0.00060256   968.34     3.5684e-8     4.5941e-4     3.3335e-7     2.5328e-8     3.7656e-4     1.162e-11     4.047e-17     5.7744e-5     2.6200e-9     2.2518e-5     
0.00072444   970.35     3.4457e-8     4.5940e-4     3.3036e-7     3.4554e-8     3.7657e-4     1.395e-11     6.623e-17     5.7744e-5     3.1057e-9     2.2518e-5     
0.00087096   972.75     3.3634e-8     4.5939e-4     3.2685e-7     4.6625e-8     3.7659e-4     1.675e-11     1.072e-16     5.7744e-5     3.6716e-9     2.2518e-5     
0.00104713   975.61     3.3246e-8     4.5938e-4     3.2273e-7     6.2120e-8     3.7661e-4     2.010e-11     1.711e-16     5.7744e-5     4.3272e-9     2.2518e-5     
0.00125893   979.01     3.3349e-8     4.5936e-4     3.1794e-7     8.1537e-8     3.7663e-4     2.412e-11     2.690e-16     5.7744e-5     5.0813e-9     2.2518e-5     
0.00151356   983.06     3.4030e-8     4.5935e-4     3.1238e-7     1.0519e-7     3.7666e-4     2.893e-11     4.153e-16     5.7744e-5     5.9414e-9     2.2518e-5     
0.00181970   987.86     3.5416e-8     4.5933e-4     3.0598e-7     1.3301e-7     3.7670e-4     3.468e-11     6.281e-16     5.7744e-5     6.9133e-9     2.2518e-5     
0.00218776   993.52     3.7689e-8     4.5930e-4     2.9868e-7     1.6444e-7     3.7673e-4     4.156e-11     9.280e-16     5.7744e-5     7.9998e-9     2.2518e-5     
